
Frequency dB Phase
0.366211 30.952
0.732422 34.299
1.098633 34.556
1.464844 39.350
1.831055 47.917
2.197266 54.508
2.563477 59.534
2.929688 63.459
3.295898 66.550
3.662109 68.990
4.028320 70.938
4.394531 72.558
4.760742 74.018
5.126953 75.448
5.493164 76.896
5.859375 78.317
6.225586 79.639
6.591797 80.809
6.958008 81.819
7.324219 82.700
7.690430 83.496
8.056641 84.247
8.422852 84.971
8.789062 85.667
9.155273 86.325
9.521484 86.941
9.887695 87.522
10.253906 88.075
